# MgH+ cc-pVDZ bondstretch with E_z = 0.005 Hartrees and omega = 4.75 / 27.211
#radius; CIS X,1; CIS A,0; Model LP; Model UP; CQED-CIS LP; CQED-CIS UP 
 1.300  -199.682882  -199.610421  -199.683100  -199.596135  -199.681595  -199.607370 
 1.400  -199.705389  -199.642382  -199.705725  -199.628107  -199.704067  -199.639099 
 1.500  -199.717834  -199.664496  -199.718348  -199.650072  -199.716514  -199.660934 
 1.600  -199.723209  -199.679393  -199.723950  -199.663171  -199.721945  -199.675486 
 1.700  -199.723568  -199.688880  -199.724694  -199.673406  -199.722451  -199.684526 
 1.800  -199.720364  -199.694230  -199.722012  -199.678324  -199.719547  -199.689264 
 1.900  -199.714654  -199.696380  -199.717064  -199.680056  -199.714404  -199.690525 
 2.000  -199.707222  -199.696050  -199.710740  -199.679189  -199.707989  -199.688839 
 2.100  -199.698656  -199.693806  -199.703650  -199.675660  -199.701120  -199.684548 
 2.200  -199.689397  -199.690108  -199.697080  -199.672083  -199.694303  -199.678044 
 2.300  -199.679781  -199.685326  -199.690252  -199.665310  -199.687599  -199.669973 
 2.400  -199.670056  -199.679765  -199.683675  -199.657492  -199.680863  -199.661030 
 2.500  -199.660408  -199.673670  -199.677314  -199.649069  -199.674016  -199.651726 
 2.600  -199.650972  -199.667235  -199.671092  -199.640370  -199.667073  -199.642377 
 2.700  -199.641846  -199.660617  -199.665052  -199.631680  -199.660133  -199.633189 
 2.800  -199.633097  -199.653946  -199.659154  -199.623138  -199.653203  -199.624262 
 2.900  -199.624770  -199.647321  -199.653405  -199.614849  -199.646386  -199.615683 
 3.000  -199.616892  -199.640820  -199.647816  -199.606880  -199.639745  -199.607497 
 3.100  -199.609474  -199.634499  -199.642404  -199.599266  -199.633327  -199.599730 
 3.200  -199.602518  -199.628400  -199.637188  -199.592029  -199.627168  -199.592391 
 3.300  -199.596015  -199.622567  -199.632195  -199.585176  -199.621293  -199.585481 
