 radius; CIS X,1; CIS A,0; JC LP; JC UP; PF LP; PF UP; CQED-CIS LP; CQED-CIS UP 
 1.300  -199.682882  -199.610421  -199.683254  -199.610049  -199.683049  -199.607716  -199.682976  -199.609830 
 1.400  -199.705389  -199.642382  -199.705853  -199.641918  -199.705638  -199.639573  -199.705561  -199.641675 
 1.500  -199.717834  -199.664496  -199.718436  -199.663894  -199.718212  -199.661523  -199.718127  -199.663619 
 1.600  -199.723209  -199.679393  -199.724020  -199.678582  -199.723776  -199.675946  -199.723688  -199.678270 
 1.700  -199.723568  -199.688880  -199.724701  -199.687746  -199.724432  -199.685272  -199.724341  -199.687391 
 1.800  -199.720364  -199.694230  -199.722012  -199.692582  -199.721689  -199.690137  -199.721617  -199.692199 
 1.900  -199.714654  -199.696380  -199.717144  -199.693890  -199.716717  -199.691567  -199.716704  -199.693462 
 2.000  -199.707222  -199.696050  -199.711103  -199.692169  -199.710481  -199.690097  -199.710602  -199.691698 
 2.100  -199.698656  -199.693806  -199.704704  -199.687758  -199.703758  -199.686005  -199.704122  -199.687251 
 2.200  -199.689397  -199.690108  -199.698374  -199.681131  -199.697255  -199.679985  -199.697693  -199.680591 
 2.300  -199.679781  -199.685326  -199.692091  -199.673016  -199.690787  -199.672161  -199.691300  -199.672440 
 2.400  -199.670056  -199.679765  -199.685713  -199.664108  -199.684339  -199.663450  -199.684803  -199.663490 
 2.500  -199.660408  -199.673670  -199.679193  -199.654886  -199.677831  -199.654359  -199.678151  -199.654220 
 2.600  -199.650972  -199.667235  -199.672565  -199.645642  -199.671261  -199.645205  -199.671384  -199.644926 
 2.700  -199.641846  -199.660617  -199.665902  -199.636561  -199.664697  -199.636193  -199.664574  -199.635792 
